# Pulseq sequence file
# Created by PyPulseq

[VERSION]
major 1
minor 4
revision 0

[DEFINITIONS]
AdcRasterTime 1e-07 
BlockDurationRaster 1e-05 
FOV 0.3 0.3 0.005 
GradientRasterTime 1e-05 
Name gre 
RadiofrequencyRasterTime 1e-06 
TotalDuration 4.2752 

# Format of blocks:
# NUM DUR RF  GX  GY  GZ  ADC  EXT
[BLOCKS]
  1 276   1   0   0   1  0  0
  2  52   0   2   2   3  0  0
  3 1622   0   0   0   0  0  0
  4 390   0   4   0   0  1  0
  5 1000   0   0   5   6  0  0
  6 276   2   0   0   1  0  0
  7  52   0   2   2   3  0  0
  8 1622   0   0   0   0  0  0
  9 390   0   4   0   0  2  0
 10 1000   0   0   5   6  0  0
 11 276   3   0   0   1  0  0
 12  52   0   2   2   3  0  0
 13 1622   0   0   0   0  0  0
 14 390   0   4   0   0  3  0
 15 1000   0   0   5   6  0  0
 16 276   4   0   0   1  0  0
 17  52   0   2   2   3  0  0
 18 1622   0   0   0   0  0  0
 19 390   0   4   0   0  4  0
 20 1000   0   0   5   6  0  0
 21 276   5   0   0   1  0  0
 22  52   0   2   2   3  0  0
 23 1622   0   0   0   0  0  0
 24 390   0   4   0   0  5  0
 25 1000   0   0   5   6  0  0
 26 276   6   0   0   1  0  0
 27  52   0   2   2   3  0  0
 28 1622   0   0   0   0  0  0
 29 390   0   4   0   0  6  0
 30 1000   0   0   5   6  0  0
 31 276   7   0   0   1  0  0
 32  52   0   2   2   3  0  0
 33 1622   0   0   0   0  0  0
 34 390   0   4   0   0  7  0
 35 1000   0   0   5   6  0  0
 36 276   8   0   0   1  0  0
 37  52   0   2   2   3  0  0
 38 1622   0   0   0   0  0  0
 39 390   0   4   0   0  8  0
 40 1000   0   0   5   6  0  0
 41 276   1   0   0   1  0  0
 42  52   0   2   2   3  0  0
 43 1622   0   0   0   0  0  0
 44 390   0   4   0   0  1  0
 45 1000   0   0   5   6  0  0
 46 276   9   0   0   1  0  0
 47  52   0   2   2   3  0  0
 48 1622   0   0   0   0  0  0
 49 390   0   4   0   0  9  0
 50 1000   0   0   5   6  0  0
 51 276  10   0   0   1  0  0
 52  52   0   2   2   3  0  0
 53 1622   0   0   0   0  0  0
 54 390   0   4   0   0 10  0
 55 1000   0   0   5   6  0  0
 56 276  11   0   0   1  0  0
 57  52   0   2   2   3  0  0
 58 1622   0   0   0   0  0  0
 59 390   0   4   0   0 11  0
 60 1000   0   0   5   6  0  0
 61 276   4   0   0   1  0  0
 62  52   0   2   2   3  0  0
 63 1622   0   0   0   0  0  0
 64 390   0   4   0   0  4  0
 65 1000   0   0   5   6  0  0
 66 276  10   0   0   1  0  0
 67  52   0   2   2   3  0  0
 68 1622   0   0   0   0  0  0
 69 390   0   4   0   0 10  0
 70 1000   0   0   5   6  0  0
 71 276  12   0   0   1  0  0
 72  52   0   2   2   3  0  0
 73 1622   0   0   0   0  0  0
 74 390   0   4   0   0 12  0
 75 1000   0   0   5   6  0  0
 76 276  13   0   0   1  0  0
 77  52   0   2   2   3  0  0
 78 1622   0   0   0   0  0  0
 79 390   0   4   0   0 13  0
 80 1000   0   0   5   6  0  0
 81 276   8   0   0   1  0  0
 82  52   0   2   2   3  0  0
 83 1622   0   0   0   0  0  0
 84 390   0   4   0   0  8  0
 85 1000   0   0   5   6  0  0
 86 276   9   0   0   1  0  0
 87  52   0   2   2   3  0  0
 88 1622   0   0   0   0  0  0
 89 390   0   4   0   0  9  0
 90 1000   0   0   5   6  0  0
 91 276  14   0   0   1  0  0
 92  52   0   2   2   3  0  0
 93 1622   0   0   0   0  0  0
 94 390   0   4   0   0 14  0
 95 1000   0   0   5   6  0  0
 96 276   5   0   0   1  0  0
 97  52   0   2   2   3  0  0
 98 1622   0   0   0   0  0  0
 99 390   0   4   0   0  5  0
100 1000   0   0   5   6  0  0
101 276  11   0   0   1  0  0
102  52   0   2   2   3  0  0
103 1622   0   0   0   0  0  0
104 390   0   4   0   0 11  0
105 1000   0   0   5   6  0  0
106 276   6   0   0   1  0  0
107  52   0   2   2   3  0  0
108 1622   0   0   0   0  0  0
109 390   0   4   0   0  6  0
110 1000   0   0   5   6  0  0
111 276   2   0   0   1  0  0
112  52   0   2   2   3  0  0
113 1622   0   0   0   0  0  0
114 390   0   4   0   0  2  0
115 1000   0   0   5   6  0  0
116 276  15   0   0   1  0  0
117  52   0   2   2   3  0  0
118 1622   0   0   0   0  0  0
119 390   0   4   0   0 15  0
120 1000   0   0   5   6  0  0
121 276  13   0   0   1  0  0
122  52   0   2   2   3  0  0
123 1622   0   0   0   0  0  0
124 390   0   4   0   0 13  0
125 1000   0   0   5   6  0  0
126 276   2   0   0   1  0  0
127  52   0   2   2   3  0  0
128 1622   0   0   0   0  0  0
129 390   0   4   0   0  2  0
130 1000   0   0   5   6  0  0
131 276  14   0   0   1  0  0
132  52   0   2   2   3  0  0
133 1622   0   0   0   0  0  0
134 390   0   4   0   0 14  0
135 1000   0   0   5   6  0  0
136 276  16   0   0   1  0  0
137  52   0   2   2   3  0  0
138 1622   0   0   0   0  0  0
139 390   0   4   0   0 16  0
140 1000   0   0   5   6  0  0
141 276   5   0   0   1  0  0
142  52   0   2   2   3  0  0
143 1622   0   0   0   0  0  0
144 390   0   4   0   0  5  0
145 1000   0   0   5   6  0  0
146 276   3   0   0   1  0  0
147  52   0   2   2   3  0  0
148 1622   0   0   0   0  0  0
149 390   0   4   0   0  3  0
150 1000   0   0   5   6  0  0
151 276  12   0   0   1  0  0
152  52   0   2   2   3  0  0
153 1622   0   0   0   0  0  0
154 390   0   4   0   0 12  0
155 1000   0   0   5   6  0  0
156 276   8   0   0   1  0  0
157  52   0   2   2   3  0  0
158 1622   0   0   0   0  0  0
159 390   0   4   0   0  8  0
160 1000   0   0   5   6  0  0
161 276  15   0   0   1  0  0
162  52   0   2   2   3  0  0
163 1622   0   0   0   0  0  0
164 390   0   4   0   0 15  0
165 1000   0   0   5   6  0  0
166 276   7   0   0   1  0  0
167  52   0   2   2   3  0  0
168 1622   0   0   0   0  0  0
169 390   0   4   0   0  7  0
170 1000   0   0   5   6  0  0
171 276  10   0   0   1  0  0
172  52   0   2   2   3  0  0
173 1622   0   0   0   0  0  0
174 390   0   4   0   0 10  0
175 1000   0   0   5   6  0  0
176 276  16   0   0   1  0  0
177  52   0   2   2   3  0  0
178 1622   0   0   0   0  0  0
179 390   0   4   0   0 16  0
180 1000   0   0   5   6  0  0
181 276  16   0   0   1  0  0
182  52   0   2   2   3  0  0
183 1622   0   0   0   0  0  0
184 390   0   4   0   0 16  0
185 1000   0   0   5   6  0  0
186 276  10   0   0   1  0  0
187  52   0   2   2   3  0  0
188 1622   0   0   0   0  0  0
189 390   0   4   0   0 10  0
190 1000   0   0   5   6  0  0
191 276   7   0   0   1  0  0
192  52   0   2   2   3  0  0
193 1622   0   0   0   0  0  0
194 390   0   4   0   0  7  0
195 1000   0   0   5   6  0  0
196 276  15   0   0   1  0  0
197  52   0   2   2   3  0  0
198 1622   0   0   0   0  0  0
199 390   0   4   0   0 15  0
200 1000   0   0   5   6  0  0
201 276   8   0   0   1  0  0
202  52   0   2   2   3  0  0
203 1622   0   0   0   0  0  0
204 390   0   4   0   0  8  0
205 1000   0   0   5   6  0  0
206 276  12   0   0   1  0  0
207  52   0   2   2   3  0  0
208 1622   0   0   0   0  0  0
209 390   0   4   0   0 12  0
210 1000   0   0   5   6  0  0
211 276   3   0   0   1  0  0
212  52   0   2   2   3  0  0
213 1622   0   0   0   0  0  0
214 390   0   4   0   0  3  0
215 1000   0   0   5   6  0  0
216 276   5   0   0   1  0  0
217  52   0   2   2   3  0  0
218 1622   0   0   0   0  0  0
219 390   0   4   0   0  5  0
220 1000   0   0   5   6  0  0
221 276  16   0   0   1  0  0
222  52   0   2   2   3  0  0
223 1622   0   0   0   0  0  0
224 390   0   4   0   0 16  0
225 1000   0   0   5   6  0  0
226 276  14   0   0   1  0  0
227  52   0   2   2   3  0  0
228 1622   0   0   0   0  0  0
229 390   0   4   0   0 14  0
230 1000   0   0   5   6  0  0
231 276   2   0   0   1  0  0
232  52   0   2   2   3  0  0
233 1622   0   0   0   0  0  0
234 390   0   4   0   0  2  0
235 1000   0   0   5   6  0  0
236 276  13   0   0   1  0  0
237  52   0   2   2   3  0  0
238 1622   0   0   0   0  0  0
239 390   0   4   0   0 13  0
240 1000   0   0   5   6  0  0
241 276  15   0   0   1  0  0
242  52   0   2   2   3  0  0
243 1622   0   0   0   0  0  0
244 390   0   4   0   0 15  0
245 1000   0   0   5   6  0  0
246 276   2   0   0   1  0  0
247  52   0   2   2   3  0  0
248 1622   0   0   0   0  0  0
249 390   0   4   0   0  2  0
250 1000   0   0   5   6  0  0
251 276   6   0   0   1  0  0
252  52   0   2   2   3  0  0
253 1622   0   0   0   0  0  0
254 390   0   4   0   0  6  0
255 1000   0   0   5   6  0  0
256 276  11   0   0   1  0  0
257  52   0   2   2   3  0  0
258 1622   0   0   0   0  0  0
259 390   0   4   0   0 11  0
260 1000   0   0   5   6  0  0
261 276   5   0   0   1  0  0
262  52   0   2   2   3  0  0
263 1622   0   0   0   0  0  0
264 390   0   4   0   0  5  0
265 1000   0   0   5   6  0  0
266 276  14   0   0   1  0  0
267  52   0   2   2   3  0  0
268 1622   0   0   0   0  0  0
269 390   0   4   0   0 14  0
270 1000   0   0   5   6  0  0
271 276   9   0   0   1  0  0
272  52   0   2   2   3  0  0
273 1622   0   0   0   0  0  0
274 390   0   4   0   0  9  0
275 1000   0   0   5   6  0  0
276 276   8   0   0   1  0  0
277  52   0   2   2   3  0  0
278 1622   0   0   0   0  0  0
279 390   0   4   0   0  8  0
280 1000   0   0   5   6  0  0
281 276  13   0   0   1  0  0
282  52   0   2   2   3  0  0
283 1622   0   0   0   0  0  0
284 390   0   4   0   0 13  0
285 1000   0   0   5   6  0  0
286 276  12   0   0   1  0  0
287  52   0   2   2   3  0  0
288 1622   0   0   0   0  0  0
289 390   0   4   0   0 12  0
290 1000   0   0   5   6  0  0
291 276  10   0   0   1  0  0
292  52   0   2   2   3  0  0
293 1622   0   0   0   0  0  0
294 390   0   4   0   0 10  0
295 1000   0   0   5   6  0  0
296 276   4   0   0   1  0  0
297  52   0   2   2   3  0  0
298 1622   0   0   0   0  0  0
299 390   0   4   0   0  4  0
300 1000   0   0   5   6  0  0
301 276  11   0   0   1  0  0
302  52   0   2   2   3  0  0
303 1622   0   0   0   0  0  0
304 390   0   4   0   0 11  0
305 1000   0   0   5   6  0  0
306 276  10   0   0   1  0  0
307  52   0   2   2   3  0  0
308 1622   0   0   0   0  0  0
309 390   0   4   0   0 10  0
310 1000   0   0   5   6  0  0
311 276   9   0   0   1  0  0
312  52   0   2   2   3  0  0
313 1622   0   0   0   0  0  0
314 390   0   4   0   0  9  0
315 1000   0   0   5   6  0  0
316 276   1   0   0   1  0  0
317  52   0   2   2   3  0  0
318 1622   0   0   0   0  0  0
319 390   0   4   0   0  1  0
320 1000   0   0   5   6  0  0
321 276   8   0   0   1  0  0
322  52   0   2   2   3  0  0
323 1622   0   0   0   0  0  0
324 390   0   4   0   0  8  0
325 1000   0   0   5   6  0  0
326 276   7   0   0   1  0  0
327  52   0   2   2   3  0  0
328 1622   0   0   0   0  0  0
329 390   0   4   0   0  7  0
330 1000   0   0   5   6  0  0
331 276   6   0   0   1  0  0
332  52   0   2   2   3  0  0
333 1622   0   0   0   0  0  0
334 390   0   4   0   0  6  0
335 1000   0   0   5   6  0  0
336 276   5   0   0   1  0  0
337  52   0   2   2   3  0  0
338 1622   0   0   0   0  0  0
339 390   0   4   0   0  5  0
340 1000   0   0   5   6  0  0
341 276   4   0   0   1  0  0
342  52   0   2   2   3  0  0
343 1622   0   0   0   0  0  0
344 390   0   4   0   0  4  0
345 1000   0   0   5   6  0  0
346 276   3   0   0   1  0  0
347  52   0   2   2   3  0  0
348 1622   0   0   0   0  0  0
349 390   0   4   0   0  3  0
350 1000   0   0   5   6  0  0
351 276   2   0   0   1  0  0
352  52   0   2   2   3  0  0
353 1622   0   0   0   0  0  0
354 390   0   4   0   0  2  0
355 1000   0   0   5   6  0  0
356 276   1   0   0   1  0  0
357  52   0   2   2   3  0  0
358 1622   0   0   0   0  0  0
359 390   0   4   0   0  1  0
360 1000   0   0   5   6  0  0
361 276   1   0   0   1  0  0
362  52   0   2   2   3  0  0
363 1622   0   0   0   0  0  0
364 390   0   4   0   0  1  0
365 1000   0   0   5   6  0  0
366 276   2   0   0   1  0  0
367  52   0   2   2   3  0  0
368 1622   0   0   0   0  0  0
369 390   0   4   0   0  2  0
370 1000   0   0   5   6  0  0
371 276   3   0   0   1  0  0
372  52   0   2   2   3  0  0
373 1622   0   0   0   0  0  0
374 390   0   4   0   0  3  0
375 1000   0   0   5   6  0  0
376 276   4   0   0   1  0  0
377  52   0   2   2   3  0  0
378 1622   0   0   0   0  0  0
379 390   0   4   0   0  4  0
380 1000   0   0   5   6  0  0
381 276   5   0   0   1  0  0
382  52   0   2   2   3  0  0
383 1622   0   0   0   0  0  0
384 390   0   4   0   0  5  0
385 1000   0   0   5   6  0  0
386 276   6   0   0   1  0  0
387  52   0   2   2   3  0  0
388 1622   0   0   0   0  0  0
389 390   0   4   0   0  6  0
390 1000   0   0   5   6  0  0
391 276   7   0   0   1  0  0
392  52   0   2   2   3  0  0
393 1622   0   0   0   0  0  0
394 390   0   4   0   0  7  0
395 1000   0   0   5   6  0  0
396 276   8   0   0   1  0  0
397  52   0   2   2   3  0  0
398 1622   0   0   0   0  0  0
399 390   0   4   0   0  8  0
400 1000   0   0   5   6  0  0
401 276   1   0   0   1  0  0
402  52   0   2   2   3  0  0
403 1622   0   0   0   0  0  0
404 390   0   4   0   0  1  0
405 1000   0   0   5   6  0  0
406 276   9   0   0   1  0  0
407  52   0   2   2   3  0  0
408 1622   0   0   0   0  0  0
409 390   0   4   0   0  9  0
410 1000   0   0   5   6  0  0
411 276  10   0   0   1  0  0
412  52   0   2   2   3  0  0
413 1622   0   0   0   0  0  0
414 390   0   4   0   0 10  0
415 1000   0   0   5   6  0  0
416 276  11   0   0   1  0  0
417  52   0   2   2   3  0  0
418 1622   0   0   0   0  0  0
419 390   0   4   0   0 11  0
420 1000   0   0   5   6  0  0
421 276   4   0   0   1  0  0
422  52   0   2   2   3  0  0
423 1622   0   0   0   0  0  0
424 390   0   4   0   0  4  0
425 1000   0   0   5   6  0  0
426 276  10   0   0   1  0  0
427  52   0   2   2   3  0  0
428 1622   0   0   0   0  0  0
429 390   0   4   0   0 10  0
430 1000   0   0   5   6  0  0
431 276  12   0   0   1  0  0
432  52   0   2   2   3  0  0
433 1622   0   0   0   0  0  0
434 390   0   4   0   0 12  0
435 1000   0   0   5   6  0  0
436 276  13   0   0   1  0  0
437  52   0   2   2   3  0  0
438 1622   0   0   0   0  0  0
439 390   0   4   0   0 13  0
440 1000   0   0   5   6  0  0
441 276   8   0   0   1  0  0
442  52   0   2   2   3  0  0
443 1622   0   0   0   0  0  0
444 390   0   4   0   0  8  0
445 1000   0   0   5   6  0  0
446 276   9   0   0   1  0  0
447  52   0   2   2   3  0  0
448 1622   0   0   0   0  0  0
449 390   0   4   0   0  9  0
450 1000   0   0   5   6  0  0
451 276  14   0   0   1  0  0
452  52   0   2   2   3  0  0
453 1622   0   0   0   0  0  0
454 390   0   4   0   0 14  0
455 1000   0   0   5   6  0  0
456 276   5   0   0   1  0  0
457  52   0   2   2   3  0  0
458 1622   0   0   0   0  0  0
459 390   0   4   0   0  5  0
460 1000   0   0   5   6  0  0
461 276  11   0   0   1  0  0
462  52   0   2   2   3  0  0
463 1622   0   0   0   0  0  0
464 390   0   4   0   0 11  0
465 1000   0   0   5   6  0  0
466 276   6   0   0   1  0  0
467  52   0   2   2   3  0  0
468 1622   0   0   0   0  0  0
469 390   0   4   0   0  6  0
470 1000   0   0   5   6  0  0
471 276   2   0   0   1  0  0
472  52   0   2   2   3  0  0
473 1622   0   0   0   0  0  0
474 390   0   4   0   0  2  0
475 1000   0   0   5   6  0  0
476 276  15   0   0   1  0  0
477  52   0   2   2   3  0  0
478 1622   0   0   0   0  0  0
479 390   0   4   0   0 15  0
480 1000   0   0   5   6  0  0
481 276  13   0   0   1  0  0
482  52   0   2   2   3  0  0
483 1622   0   0   0   0  0  0
484 390   0   4   0   0 13  0
485 1000   0   0   5   6  0  0
486 276   2   0   0   1  0  0
487  52   0   2   2   3  0  0
488 1622   0   0   0   0  0  0
489 390   0   4   0   0  2  0
490 1000   0   0   5   6  0  0
491 276  14   0   0   1  0  0
492  52   0   2   2   3  0  0
493 1622   0   0   0   0  0  0
494 390   0   4   0   0 14  0
495 1000   0   0   5   6  0  0
496 276  16   0   0   1  0  0
497  52   0   2   2   3  0  0
498 1622   0   0   0   0  0  0
499 390   0   4   0   0 16  0
500 1000   0   0   5   6  0  0
501 276   5   0   0   1  0  0
502  52   0   2   2   3  0  0
503 1622   0   0   0   0  0  0
504 390   0   4   0   0  5  0
505 1000   0   0   5   6  0  0
506 276   3   0   0   1  0  0
507  52   0   2   2   3  0  0
508 1622   0   0   0   0  0  0
509 390   0   4   0   0  3  0
510 1000   0   0   5   6  0  0
511 276  12   0   0   1  0  0
512  52   0   2   2   3  0  0
513 1622   0   0   0   0  0  0
514 390   0   4   0   0 12  0
515 1000   0   0   5   6  0  0
516 276   8   0   0   1  0  0
517  52   0   2   2   3  0  0
518 1622   0   0   0   0  0  0
519 390   0   4   0   0  8  0
520 1000   0   0   5   6  0  0
521 276  15   0   0   1  0  0
522  52   0   2   2   3  0  0
523 1622   0   0   0   0  0  0
524 390   0   4   0   0 15  0
525 1000   0   0   5   6  0  0
526 276   7   0   0   1  0  0
527  52   0   2   2   3  0  0
528 1622   0   0   0   0  0  0
529 390   0   4   0   0  7  0
530 1000   0   0   5   6  0  0
531 276  10   0   0   1  0  0
532  52   0   2   2   3  0  0
533 1622   0   0   0   0  0  0
534 390   0   4   0   0 10  0
535 1000   0   0   5   6  0  0
536 276  16   0   0   1  0  0
537  52   0   2   2   3  0  0
538 1622   0   0   0   0  0  0
539 390   0   4   0   0 16  0
540 1000   0   0   5   6  0  0
541 276  16   0   0   1  0  0
542  52   0   2   2   3  0  0
543 1622   0   0   0   0  0  0
544 390   0   4   0   0 16  0
545 1000   0   0   5   6  0  0
546 276  10   0   0   1  0  0
547  52   0   2   2   3  0  0
548 1622   0   0   0   0  0  0
549 390   0   4   0   0 10  0
550 1000   0   0   5   6  0  0
551 276   7   0   0   1  0  0
552  52   0   2   2   3  0  0
553 1622   0   0   0   0  0  0
554 390   0   4   0   0  7  0
555 1000   0   0   5   6  0  0
556 276  15   0   0   1  0  0
557  52   0   2   2   3  0  0
558 1622   0   0   0   0  0  0
559 390   0   4   0   0 15  0
560 1000   0   0   5   6  0  0
561 276   8   0   0   1  0  0
562  52   0   2   2   3  0  0
563 1622   0   0   0   0  0  0
564 390   0   4   0   0  8  0
565 1000   0   0   5   6  0  0
566 276  12   0   0   1  0  0
567  52   0   2   2   3  0  0
568 1622   0   0   0   0  0  0
569 390   0   4   0   0 12  0
570 1000   0   0   5   6  0  0
571 276   3   0   0   1  0  0
572  52   0   2   2   3  0  0
573 1622   0   0   0   0  0  0
574 390   0   4   0   0  3  0
575 1000   0   0   5   6  0  0
576 276   5   0   0   1  0  0
577  52   0   2   2   3  0  0
578 1622   0   0   0   0  0  0
579 390   0   4   0   0  5  0
580 1000   0   0   5   6  0  0
581 276  16   0   0   1  0  0
582  52   0   2   2   3  0  0
583 1622   0   0   0   0  0  0
584 390   0   4   0   0 16  0
585 1000   0   0   5   6  0  0
586 276  14   0   0   1  0  0
587  52   0   2   2   3  0  0
588 1622   0   0   0   0  0  0
589 390   0   4   0   0 14  0
590 1000   0   0   5   6  0  0
591 276   2   0   0   1  0  0
592  52   0   2   2   3  0  0
593 1622   0   0   0   0  0  0
594 390   0   4   0   0  2  0
595 1000   0   0   5   6  0  0
596 276  13   0   0   1  0  0
597  52   0   2   2   3  0  0
598 1622   0   0   0   0  0  0
599 390   0   4   0   0 13  0
600 1000   0   0   5   6  0  0
601 276  15   0   0   1  0  0
602  52   0   2   2   3  0  0
603 1622   0   0   0   0  0  0
604 390   0   4   0   0 15  0
605 1000   0   0   5   6  0  0
606 276   2   0   0   1  0  0
607  52   0   2   2   3  0  0
608 1622   0   0   0   0  0  0
609 390   0   4   0   0  2  0
610 1000   0   0   5   6  0  0
611 276   6   0   0   1  0  0
612  52   0   2   2   3  0  0
613 1622   0   0   0   0  0  0
614 390   0   4   0   0  6  0
615 1000   0   0   5   6  0  0
616 276  11   0   0   1  0  0
617  52   0   2   2   3  0  0
618 1622   0   0   0   0  0  0
619 390   0   4   0   0 11  0
620 1000   0   0   5   6  0  0
621 276   5   0   0   1  0  0
622  52   0   2   2   3  0  0
623 1622   0   0   0   0  0  0
624 390   0   4   0   0  5  0
625 1000   0   0   5   6  0  0
626 276  14   0   0   1  0  0
627  52   0   2   2   3  0  0
628 1622   0   0   0   0  0  0
629 390   0   4   0   0 14  0
630 1000   0   0   5   6  0  0
631 276   9   0   0   1  0  0
632  52   0   2   2   3  0  0
633 1622   0   0   0   0  0  0
634 390   0   4   0   0  9  0
635 1000   0   0   5   6  0  0
636 276   8   0   0   1  0  0
637  52   0   2   2   3  0  0
638 1622   0   0   0   0  0  0
639 390   0   4   0   0  8  0
640 1000   0   0   5   6  0  0

# Format of RF events:
# id amplitude mag_id phase_id time_shape_id delay freq phase
# ..        Hz   ....     ....          ....    us   Hz   rad
[RF]
1      46.1634 1 2 3 100 0 0
2      46.1634 1 2 3 100 0 0.872665
3      46.1634 1 2 3 100 0 2.61799
4      46.1634 1 2 3 100 0 5.23599
5      46.1634 1 2 3 100 0 2.44346
6      46.1634 1 2 3 100 0 0.523599
7      46.1634 1 2 3 100 0 5.75959
8      46.1634 1 2 3 100 0 5.58505
9      46.1634 1 2 3 100 0 1.5708
10      46.1634 1 2 3 100 0 4.01426
11      46.1634 1 2 3 100 0 1.0472
12      46.1634 1 2 3 100 0 3.66519
13      46.1634 1 2 3 100 0 4.18879
14      46.1634 1 2 3 100 0 4.71239
15      46.1634 1 2 3 100 0 2.0944
16      46.1634 1 2 3 100 0 3.14159

# Format of arbitrary gradients:
#   time_shape_id of 0 means default timing (stepping with grad_raster starting at 1/2 of grad_raster)
# id amplitude amp_shape_id time_shape_id delay
# ..      Hz/m       ..         ..          us
[GRADIENTS]
1           -1 4 0 0
2            1 5 0 0
3            1 6 0 0
4            1 7 0 0
5           -1 5 0 0
6           -1 6 0 0

# Format of ADC events:
# id num dwell delay freq phase
# ..  ..    ns    us   Hz   rad
[ADC]
1 128 30000 30 0 0
2 128 30000 30 0 0.872665
3 128 30000 30 0 2.61799
4 128 30000 30 0 5.23599
5 128 30000 30 0 2.44346
6 128 30000 30 0 0.523599
7 128 30000 30 0 5.75959
8 128 30000 30 0 5.58505
9 128 30000 30 0 1.5708
10 128 30000 30 0 4.01426
11 128 30000 30 0 1.0472
12 128 30000 30 0 3.66519
13 128 30000 30 0 4.18879
14 128 30000 30 0 4.71239
15 128 30000 30 0 2.0944
16 128 30000 30 0 3.14159

# Sequence Shapes
[SHAPES]

shape_id 1
num_samples 128
3.13408678e-05
0.000275365972
0.000741999828
0.00140100794
0.00221394946
0.00313434687
0.00410794205
0.00507307441
0.00596111101
0.00669709683
0.00720032491
0.00738518665
0.00716193209
0.00643765018
0.00511722915
0.00310435686
0.000302691099
0.00338310996
0.00804617742
0.0137763013
0.0206588
0.0287734103
0.0381929564
0.0489826602
0.0611988404
0.0748879126
0.0900858887
0.106816677
0.125093781
0.144915402
0.166268534
0.189126168
0.213447291
0.239176885
0.266245926
0.294573388
0.324062237
0.354604438
0.386079951
0.418355731
0.45128873
0.484726899
0.518508182
0.552463523
0.586416863
0.620189143
0.653595301
0.686450274
0.718566001
0.749758419
0.779842467
0.808640086
0.835977216
0.861685803
0.885606793
0.907593136
0.927504787
0.945215702
0.960613845
0.973600182
0.984091687
0.992020335
0.99733411
1
1
0.99733411
0.992020335
0.984091687
0.973600182
0.960613845
0.945215702
0.927504787
0.907593136
0.885606793
0.861685803
0.835977216
0.808640086
0.779842467
0.749758419
0.718566001
0.686450274
0.653595301
0.620189143
0.586416863
0.552463523
0.518508182
0.484726899
0.45128873
0.418355731
0.386079951
0.354604438
0.324062237
0.294573388
0.266245926
0.239176885
0.213447291
0.189126168
0.166268534
0.144915402
0.125093781
0.106816677
0.0900858887
0.0748879126
0.0611988404
0.0489826602
0.0381929564
0.0287734103
0.0206588
0.0137763013
0.00804617742
0.00338310996
0.000302691099
0.00310435686
0.00511722915
0.00643765018
0.00716193209
0.00738518665
0.00720032491
0.00669709683
0.00596111101
0.00507307441
0.00410794205
0.00313434687
0.00221394946
0.00140100794
0.000741999828
0.000275365972
3.13408678e-05

shape_id 2
num_samples 128
0
0
126

shape_id 3
num_samples 128
10
20
20
125

shape_id 4
num_samples 276
0
0.1
0.1
8
0
0
253
-0.1
-0.1
8

shape_id 5
num_samples 45
0
0.0455
0.0909
0.1364
0.1818
0.2273
0.2727
0.3182
0.3636
0.4091
0.4545
0.5
0.5455
0.5909
0.6364
0.6818
0.7273
0.7727
0.8182
0.8636
0.9091
0.9545
1
0.9545
0.9091
0.8636
0.8182
0.7727
0.7273
0.6818
0.6364
0.5909
0.5455
0.5
0.4545
0.4091
0.3636
0.3182
0.2727
0.2273
0.1818
0.1364
0.0909
0.0455
0

shape_id 6
num_samples 52
0
0.0455
0.0454
0.0455
0.0454
0.0455
0.0454
0.0455
0.0454
0.0455
0.0454
0.0455
0.0455
0
0.0454
0.0455
0.0454
0.0455
0.0454
0.0455
0.0454
0.0455
0.0454
0.0455
0
0
5
-0.0455
-0.0454
-0.0455
-0.0454
-0.0455
-0.0454
-0.0455
-0.0454
-0.0455
-0.0454
-0.0455
-0.0455
0
-0.0454
-0.0455
-0.0454
-0.0455
-0.0454
-0.0455
-0.0454
-0.0455
-0.0454
-0.0455

shape_id 7
num_samples 390
0
0.3333
0.3334
0.3333
0
0
381
-0.3333
-0.3334
-0.3333


[SIGNATURE]
# This is the hash of the Pulseq file, calculated right before the [SIGNATURE] section was added
# It can be reproduced/verified with md5sum if the file trimmed to the position right above [SIGNATURE]
# The new line character preceding [SIGNATURE] BELONGS to the signature (and needs to be stripped away for recalculating/verification)
Type md5
Hash 7aaa51924843ac26e77c07dc1aa62c7d
