# Pulseq sequence file
# Created by PyPulseq

[VERSION]
major 1
minor 4
revision 0

[DEFINITIONS]
AdcRasterTime 1e-07 
BlockDurationRaster 1e-05 
FOV 0.3 0.3 0.005 
GradientRasterTime 1e-05 
Name YARRA 
RadiofrequencyRasterTime 1e-06 
TotalDuration 63.99872 

# Format of blocks:
# NUM DUR RF  GX  GY  GZ  ADC  EXT
[BLOCKS]
  1 275   1   0   0   1  0  0
  2  52   0   4   3   2  0  0
  3 1004   0   5   0   0  1  0
  4 131   0   8   7   6  0  0
  5 48537   0   0   0   0  0  0
  6 275   1   0   0   1  0  0
  7  52   0   4   9   2  0  0
  8 1004   0   5   0   0  1  0
  9 131   0   8  10   6  0  0
 10 48537   0   0   0   0  0  0
 11 275   1   0   0   1  0  0
 12  52   0   4  11   2  0  0
 13 1004   0   5   0   0  1  0
 14 131   0   8  12   6  0  0
 15 48537   0   0   0   0  0  0
 16 275   1   0   0   1  0  0
 17  52   0   4  13   2  0  0
 18 1004   0   5   0   0  1  0
 19 131   0   8  14   6  0  0
 20 48537   0   0   0   0  0  0
 21 275   1   0   0   1  0  0
 22  52   0   4  15   2  0  0
 23 1004   0   5   0   0  1  0
 24 131   0   8  16   6  0  0
 25 48537   0   0   0   0  0  0
 26 275   1   0   0   1  0  0
 27  52   0   4  17   2  0  0
 28 1004   0   5   0   0  1  0
 29 131   0   8  18   6  0  0
 30 48537   0   0   0   0  0  0
 31 275   1   0   0   1  0  0
 32  52   0   4  19   2  0  0
 33 1004   0   5   0   0  1  0
 34 131   0   8  20   6  0  0
 35 48537   0   0   0   0  0  0
 36 275   1   0   0   1  0  0
 37  52   0   4  21   2  0  0
 38 1004   0   5   0   0  1  0
 39 131   0   8  22   6  0  0
 40 48537   0   0   0   0  0  0
 41 275   1   0   0   1  0  0
 42  52   0   4  23   2  0  0
 43 1004   0   5   0   0  1  0
 44 131   0   8  24   6  0  0
 45 48537   0   0   0   0  0  0
 46 275   1   0   0   1  0  0
 47  52   0   4  25   2  0  0
 48 1004   0   5   0   0  1  0
 49 131   0   8  26   6  0  0
 50 48537   0   0   0   0  0  0
 51 275   1   0   0   1  0  0
 52  52   0   4  27   2  0  0
 53 1004   0   5   0   0  1  0
 54 131   0   8  28   6  0  0
 55 48537   0   0   0   0  0  0
 56 275   1   0   0   1  0  0
 57  52   0   4  29   2  0  0
 58 1004   0   5   0   0  1  0
 59 131   0   8  30   6  0  0
 60 48537   0   0   0   0  0  0
 61 275   1   0   0   1  0  0
 62  52   0   4  31   2  0  0
 63 1004   0   5   0   0  1  0
 64 131   0   8  32   6  0  0
 65 48537   0   0   0   0  0  0
 66 275   1   0   0   1  0  0
 67  52   0   4  33   2  0  0
 68 1004   0   5   0   0  1  0
 69 131   0   8  34   6  0  0
 70 48537   0   0   0   0  0  0
 71 275   1   0   0   1  0  0
 72  52   0   4  35   2  0  0
 73 1004   0   5   0   0  1  0
 74 131   0   8  36   6  0  0
 75 48537   0   0   0   0  0  0
 76 275   1   0   0   1  0  0
 77  52   0   4  37   2  0  0
 78 1004   0   5   0   0  1  0
 79 131   0   8  38   6  0  0
 80 48537   0   0   0   0  0  0
 81 275   1   0   0   1  0  0
 82  52   0   4  39   2  0  0
 83 1004   0   5   0   0  1  0
 84 131   0   8  40   6  0  0
 85 48537   0   0   0   0  0  0
 86 275   1   0   0   1  0  0
 87  52   0   4  41   2  0  0
 88 1004   0   5   0   0  1  0
 89 131   0   8  42   6  0  0
 90 48537   0   0   0   0  0  0
 91 275   1   0   0   1  0  0
 92  52   0   4  43   2  0  0
 93 1004   0   5   0   0  1  0
 94 131   0   8  44   6  0  0
 95 48537   0   0   0   0  0  0
 96 275   1   0   0   1  0  0
 97  52   0   4  45   2  0  0
 98 1004   0   5   0   0  1  0
 99 131   0   8  46   6  0  0
100 48537   0   0   0   0  0  0
101 275   1   0   0   1  0  0
102  52   0   4  47   2  0  0
103 1004   0   5   0   0  1  0
104 131   0   8  48   6  0  0
105 48537   0   0   0   0  0  0
106 275   1   0   0   1  0  0
107  52   0   4  49   2  0  0
108 1004   0   5   0   0  1  0
109 131   0   8  50   6  0  0
110 48537   0   0   0   0  0  0
111 275   1   0   0   1  0  0
112  52   0   4  51   2  0  0
113 1004   0   5   0   0  1  0
114 131   0   8  52   6  0  0
115 48537   0   0   0   0  0  0
116 275   1   0   0   1  0  0
117  52   0   4  53   2  0  0
118 1004   0   5   0   0  1  0
119 131   0   8  54   6  0  0
120 48537   0   0   0   0  0  0
121 275   1   0   0   1  0  0
122  52   0   4  55   2  0  0
123 1004   0   5   0   0  1  0
124 131   0   8  56   6  0  0
125 48537   0   0   0   0  0  0
126 275   1   0   0   1  0  0
127  52   0   4  57   2  0  0
128 1004   0   5   0   0  1  0
129 131   0   8  58   6  0  0
130 48537   0   0   0   0  0  0
131 275   1   0   0   1  0  0
132  52   0   4  59   2  0  0
133 1004   0   5   0   0  1  0
134 131   0   8  60   6  0  0
135 48537   0   0   0   0  0  0
136 275   1   0   0   1  0  0
137  52   0   4  61   2  0  0
138 1004   0   5   0   0  1  0
139 131   0   8  62   6  0  0
140 48537   0   0   0   0  0  0
141 275   1   0   0   1  0  0
142  52   0   4  63   2  0  0
143 1004   0   5   0   0  1  0
144 131   0   8  64   6  0  0
145 48537   0   0   0   0  0  0
146 275   1   0   0   1  0  0
147  52   0   4  65   2  0  0
148 1004   0   5   0   0  1  0
149 131   0   8  66   6  0  0
150 48537   0   0   0   0  0  0
151 275   1   0   0   1  0  0
152  52   0   4  67   2  0  0
153 1004   0   5   0   0  1  0
154 131   0   8  68   6  0  0
155 48537   0   0   0   0  0  0
156 275   1   0   0   1  0  0
157  52   0   4  69   2  0  0
158 1004   0   5   0   0  1  0
159 131   0   8  70   6  0  0
160 48537   0   0   0   0  0  0
161 275   1   0   0   1  0  0
162  52   0   4  71   2  0  0
163 1004   0   5   0   0  1  0
164 131   0   8  72   6  0  0
165 48537   0   0   0   0  0  0
166 275   1   0   0   1  0  0
167  52   0   4  73   2  0  0
168 1004   0   5   0   0  1  0
169 131   0   8  74   6  0  0
170 48537   0   0   0   0  0  0
171 275   1   0   0   1  0  0
172  52   0   4  75   2  0  0
173 1004   0   5   0   0  1  0
174 131   0   8  76   6  0  0
175 48537   0   0   0   0  0  0
176 275   1   0   0   1  0  0
177  52   0   4  77   2  0  0
178 1004   0   5   0   0  1  0
179 131   0   8  78   6  0  0
180 48537   0   0   0   0  0  0
181 275   1   0   0   1  0  0
182  52   0   4  79   2  0  0
183 1004   0   5   0   0  1  0
184 131   0   8  80   6  0  0
185 48537   0   0   0   0  0  0
186 275   1   0   0   1  0  0
187  52   0   4  81   2  0  0
188 1004   0   5   0   0  1  0
189 131   0   8  82   6  0  0
190 48537   0   0   0   0  0  0
191 275   1   0   0   1  0  0
192  52   0   4  83   2  0  0
193 1004   0   5   0   0  1  0
194 131   0   8  84   6  0  0
195 48537   0   0   0   0  0  0
196 275   1   0   0   1  0  0
197  52   0   4  85   2  0  0
198 1004   0   5   0   0  1  0
199 131   0   8  86   6  0  0
200 48537   0   0   0   0  0  0
201 275   1   0   0   1  0  0
202  52   0   4  87   2  0  0
203 1004   0   5   0   0  1  0
204 131   0   8  88   6  0  0
205 48537   0   0   0   0  0  0
206 275   1   0   0   1  0  0
207  52   0   4  89   2  0  0
208 1004   0   5   0   0  1  0
209 131   0   8  90   6  0  0
210 48537   0   0   0   0  0  0
211 275   1   0   0   1  0  0
212  52   0   4  91   2  0  0
213 1004   0   5   0   0  1  0
214 131   0   8  92   6  0  0
215 48537   0   0   0   0  0  0
216 275   1   0   0   1  0  0
217  52   0   4  93   2  0  0
218 1004   0   5   0   0  1  0
219 131   0   8  94   6  0  0
220 48537   0   0   0   0  0  0
221 275   1   0   0   1  0  0
222  52   0   4  95   2  0  0
223 1004   0   5   0   0  1  0
224 131   0   8  96   6  0  0
225 48537   0   0   0   0  0  0
226 275   1   0   0   1  0  0
227  52   0   4  97   2  0  0
228 1004   0   5   0   0  1  0
229 131   0   8  98   6  0  0
230 48537   0   0   0   0  0  0
231 275   1   0   0   1  0  0
232  52   0   4  99   2  0  0
233 1004   0   5   0   0  1  0
234 131   0   8 100   6  0  0
235 48537   0   0   0   0  0  0
236 275   1   0   0   1  0  0
237  52   0   4 101   2  0  0
238 1004   0   5   0   0  1  0
239 131   0   8 102   6  0  0
240 48537   0   0   0   0  0  0
241 275   1   0   0   1  0  0
242  52   0   4 103   2  0  0
243 1004   0   5   0   0  1  0
244 131   0   8 104   6  0  0
245 48537   0   0   0   0  0  0
246 275   1   0   0   1  0  0
247  52   0   4 105   2  0  0
248 1004   0   5   0   0  1  0
249 131   0   8 106   6  0  0
250 48537   0   0   0   0  0  0
251 275   1   0   0   1  0  0
252  52   0   4 107   2  0  0
253 1004   0   5   0   0  1  0
254 131   0   8 108   6  0  0
255 48537   0   0   0   0  0  0
256 275   1   0   0   1  0  0
257  52   0   4 109   2  0  0
258 1004   0   5   0   0  1  0
259 131   0   8 110   6  0  0
260 48537   0   0   0   0  0  0
261 275   1   0   0   1  0  0
262  52   0   4 111   2  0  0
263 1004   0   5   0   0  1  0
264 131   0   8 112   6  0  0
265 48537   0   0   0   0  0  0
266 275   1   0   0   1  0  0
267  52   0   4 113   2  0  0
268 1004   0   5   0   0  1  0
269 131   0   8 114   6  0  0
270 48537   0   0   0   0  0  0
271 275   1   0   0   1  0  0
272  52   0   4 115   2  0  0
273 1004   0   5   0   0  1  0
274 131   0   8 116   6  0  0
275 48537   0   0   0   0  0  0
276 275   1   0   0   1  0  0
277  52   0   4 117   2  0  0
278 1004   0   5   0   0  1  0
279 131   0   8 118   6  0  0
280 48537   0   0   0   0  0  0
281 275   1   0   0   1  0  0
282  52   0   4 119   2  0  0
283 1004   0   5   0   0  1  0
284 131   0   8 120   6  0  0
285 48537   0   0   0   0  0  0
286 275   1   0   0   1  0  0
287  52   0   4 121   2  0  0
288 1004   0   5   0   0  1  0
289 131   0   8 122   6  0  0
290 48537   0   0   0   0  0  0
291 275   1   0   0   1  0  0
292  52   0   4 123   2  0  0
293 1004   0   5   0   0  1  0
294 131   0   8 124   6  0  0
295 48537   0   0   0   0  0  0
296 275   1   0   0   1  0  0
297  52   0   4 125   2  0  0
298 1004   0   5   0   0  1  0
299 131   0   8 126   6  0  0
300 48537   0   0   0   0  0  0
301 275   1   0   0   1  0  0
302  52   0   4 127   2  0  0
303 1004   0   5   0   0  1  0
304 131   0   8 128   6  0  0
305 48537   0   0   0   0  0  0
306 275   1   0   0   1  0  0
307  52   0   4 129   2  0  0
308 1004   0   5   0   0  1  0
309 131   0   8 130   6  0  0
310 48537   0   0   0   0  0  0
311 275   1   0   0   1  0  0
312  52   0   4 131   2  0  0
313 1004   0   5   0   0  1  0
314 131   0   8 132   6  0  0
315 48537   0   0   0   0  0  0
316 275   1   0   0   1  0  0
[RF]
1       342.29 2 3 4 100 0 0

# Format of arbitrary gradients:
#   time_shape_id of 0 means default timing (stepping with grad_raster starting at 1/2 of grad_raster)
# id amplitude amp_shape_id time_shape_id delay
# ..      Hz/m       ..         ..          us
[GRADIENTS]
1       210756 1 0 0
2      -934565 5 0 0
3      -976280 6 0 0
4      -934991 7 0 0
5       111126 8 0 6150
6       934565 5 0 10
7      -976280 6 0 10
8       930307 9 0 10
9      -961144 10 0 0
10      -961144 10 0 10
11      -946008 11 0 0
12      -946008 11 0 10
13      -930872 12 0 0
14      -930872 12 0 10
15      -915735 13 0 0
16      -915735 13 0 10
17      -900599 14 0 0
18      -900599 14 0 10
19      -885463 15 0 0
20      -885463 15 0 10
21      -870327 16 0 0
22      -870327 16 0 10
23      -855191 17 0 0
24      -855191 17 0 10
25      -840055 18 0 0
26      -840055 18 0 10
27      -824919 19 0 0
28      -824919 19 0 10
29      -809783 7 0 0
30      -809783 7 0 10
31      -794646 20 0 0
32      -794646 20 0 10
33      -779510 21 0 0
34      -779510 21 0 10
35      -764374 13 0 0
36      -764374 13 0 10
37      -749238 22 0 0
38      -749238 22 0 10
39      -734102 23 0 0
40      -734102 23 0 10
41      -718966 24 0 0
42      -718966 24 0 10
43      -703830 25 0 0
44      -703830 25 0 10
45      -688694 26 0 0
46      -688694 26 0 10
47      -673557 27 0 0
48      -673557 27 0 10
49      -658421 28 0 0
50      -658421 28 0 10
51      -643285 29 0 0
52      -643285 29 0 10
53      -628149 30 0 0
54      -628149 30 0 10
55      -613013 31 0 0
56      -613013 31 0 10
57      -597877 32 0 0
58      -597877 32 0 10
59      -582741 33 0 0
60      -582741 33 0 10
61      -567605 13 0 0
62      -567605 13 0 10
63      -552469 17 0 0
64      -552469 17 0 10
65      -537332 13 0 0
66      -537332 13 0 10
67      -522196 13 0 0
68      -522196 13 0 10
69      -507060 13 0 0
70      -507060 13 0 10
71      -491924 34 0 0
72      -491924 34 0 10
73      -476788 35 0 0
74      -476788 35 0 10
75      -461652 36 0 0
76      -461652 36 0 10
77      -446516 37 0 0
78      -446516 37 0 10
79      -431380 38 0 0
80      -431380 38 0 10
81      -416243 39 0 0
82      -416243 39 0 10
83      -401107 40 0 0
84      -401107 40 0 10
85      -385971 41 0 0
86      -385971 41 0 10
87      -370835 42 0 0
88      -370835 42 0 10
89      -355699 43 0 0
90      -355699 43 0 10
91      -340563 44 0 0
92      -340563 44 0 10
93      -325427 45 0 0
94      -325427 45 0 10
95      -310291 35 0 0
96      -310291 35 0 10
97      -295154 46 0 0
98      -295154 46 0 10
99      -280018 13 0 0
100      -280018 13 0 10
101      -264882 13 0 0
102      -264882 13 0 10
103      -249746 47 0 0
104      -249746 47 0 10
105      -234610 48 0 0
106      -234610 48 0 10
107      -219474 49 0 0
108      -219474 49 0 10
109      -204338 50 0 0
110      -204338 50 0 10
111      -189202 51 0 0
112      -189202 51 0 10
113      -174065 52 0 0
114      -174065 52 0 10
115      -158929 53 0 0
116      -158929 53 0 10
117      -143793 54 0 0
118      -143793 54 0 10
119      -128657 13 0 0
120      -128657 13 0 10
121      -113521 13 0 0
122      -113521 13 0 10
123     -98384.8 13 0 0
124     -98384.8 13 0 10
125     -83248.7 55 0 0
126     -83248.7 55 0 10
127     -68112.6 13 0 0
128     -68112.6 13 0 10
129     -52976.4 13 0 0
130     -52976.4 13 0 10
131     -37840.3 7 0 0
132     -37840.3 7 0 10
133     -22704.2 33 0 0
134     -22704.2 33 0 10
135     -7568.06 56 0 0
136     -7568.06 56 0 10
137      7568.06 56 0 0
138      7568.06 56 0 10
139      22704.2 33 0 0
140      22704.2 33 0 10
141      37840.3 7 0 0
142      37840.3 7 0 10
143      52976.4 13 0 0
144      52976.4 13 0 10
145      68112.6 13 0 0
146      68112.6 13 0 10
147      83248.7 55 0 0
148      83248.7 55 0 10
149      98384.8 13 0 0
150      98384.8 13 0 10
151       113521 13 0 0
152       113521 13 0 10
153       128657 13 0 0
154       128657 13 0 10
155       143793 54 0 0
156       143793 54 0 10
157       158929 53 0 0
158       158929 53 0 10
159       174065 52 0 0
160       174065 52 0 10
161       189202 51 0 0
162       189202 51 0 10
163       204338 50 0 0
164       204338 50 0 10
165       219474 49 0 0
166       219474 49 0 10
167       234610 48 0 0
168       234610 48 0 10
169       249746 47 0 0
170       249746 47 0 10
171       264882 13 0 0
172       264882 13 0 10
173       280018 13 0 0
174       280018 13 0 10
175       295154 46 0 0
176       295154 46 0 10
177       310291 35 0 0
178       310291 35 0 10
179       325427 45 0 0
180       325427 45 0 10
181       340563 44 0 0
182       340563 44 0 10
183       355699 43 0 0
184       355699 43 0 10
185       370835 42 0 0
186       370835 42 0 10
187       385971 41 0 0
188       385971 41 0 10
189       401107 40 0 0
190       401107 40 0 10
191       416243 39 0 0
192       416243 39 0 10
193       431380 38 0 0
194       431380 38 0 10
195       446516 37 0 0
196       446516 37 0 10
197       461652 36 0 0
198       461652 36 0 10
199       476788 35 0 0
200       476788 35 0 10
201       491924 34 0 0
202       491924 34 0 10
203       507060 13 0 0
204       507060 13 0 10
205       522196 13 0 0
206       522196 13 0 10
207       537332 13 0 0
208       537332 13 0 10
209       552469 17 0 0
210       552469 17 0 10
211       567605 13 0 0
212       567605 13 0 10
213       582741 33 0 0
214       582741 33 0 10
215       597877 32 0 0
216       597877 32 0 10
217       613013 31 0 0
218       613013 31 0 10
219       628149 30 0 0
220       628149 30 0 10
221       643285 29 0 0
222       643285 29 0 10
223       658421 28 0 0
224       658421 28 0 10
225       673557 27 0 0
226       673557 27 0 10
227       688694 26 0 0
228       688694 26 0 10
229       703830 25 0 0
230       703830 25 0 10
231       718966 24 0 0
232       718966 24 0 10
233       734102 23 0 0
234       734102 23 0 10
235       749238 22 0 0
236       749238 22 0 10
237       764374 13 0 0
238       764374 13 0 10
239       779510 21 0 0
240       779510 21 0 10
241       794646 20 0 0
242       794646 20 0 10
243       809783 7 0 0
244       809783 7 0 10
245       824919 19 0 0
246       824919 19 0 10
247       840055 18 0 0
248       840055 18 0 10
249       855191 17 0 0
250       855191 17 0 10
251       870327 16 0 0
252       870327 16 0 10
253       885463 15 0 0
254       885463 15 0 10
255       900599 14 0 0
256       900599 14 0 10
257       915735 13 0 0
258       915735 13 0 10
259       930872 12 0 0
260       930872 12 0 10
261       946008 11 0 0
262       946008 11 0 10

# Format of ADC events:
# id num dwell delay freq phase
# ..  ..    ns    us   Hz   rad
[ADC]
1 256 15000 6180 0 0

# Sequence Shapes
[SHAPES]

shape_id 1
num_samples 275
0
0.1
0.1
8
0
0
252
-0.1
-0.1
8

shape_id 2
num_samples 128
3.11854168e-18
0.00127709713
0.00263619803
0.00412096129
0.00577427533
0.00763644759
0.00974335716
0.0121246124
0.0148017555
0.0177865559
0.0210794356
0.0246680655
0.0285261709
0.0326125821
0.0368705593
0.0412274199
0.0455944881
0.049867383
0.0539266529
0.0576387606
0.060857414
0.0634252303
0.0651757189
0.0659355557
0.0655271198
0.0637712562
0.0604902216
0.0555107692
0.0486673194
0.0398051656
0.028783659
0.0154793152
0.00021121304
0.018368353
0.0390470728
0.0622746373
0.0880487054
0.116335811
0.147070264
0.180153504
0.215453928
0.252807202
0.292017081
0.332856714
0.375070447
0.418376095
0.462467653
0.507018435
0.551684572
0.596108847
0.639924798
0.682761038
0.72424573
0.764011151
0.801698272
0.836961294
0.869472065
0.898924318
0.925037648
0.947561196
0.96627695
0.981002636
0.991594142
0.997947446
1
0.997731574
0.991164526
0.9803635
0.965434562
0.946523782
0.923815282
0.897528787
0.867916719
0.835260863
0.799868678
0.762069301
0.722209299
0.680648243
0.637754172
0.593899008
0.549453996
0.504785237
0.460249377
0.416189514
0.372931381
0.330779861
0.290015875
0.250893686
0.213638654
0.178445456
0.145476804
0.114862652
0.08669991
0.0610526363
0.0379527113
0.0174009566
0.000631326021
0.0162004336
0.0293880021
0.0402984533
0.0490562018
0.0558026742
0.0606931964
0.0638938077
0.0655780545
0.0659238229
0.0651102599
0.0633148353
0.06071059
0.0574636108
0.0537307703
0.0496577599
0.0453774413
0.0410085329
0.0366546428
0.0324036509
0.028327439
0.0244819565
0.0209076103
0.017629953
0.0146606458
0.0119986645
0.00963171233
0.00753780233
0.00568696944
0.00404306915
0.00256562126
0.00121165629

shape_id 3
num_samples 128
0
0
126

shape_id 4
num_samples 128
10
20
20
125

shape_id 5
num_samples 52
0
0.0455
0.0454
0.0455
0.0454
0.0455
0.0454
0.0455
0.0454
0.0455
0.0454
0.0455
0.0455
0
0.0454
0.0455
0.0454
0.0455
0.0454
0.0455
0.0454
0.0455
0.0454
0.0455
0
0
5
-0.0455
-0.0454
-0.0455
-0.0454
-0.0455
-0.0454
-0.0455
-0.0454
-0.0455
-0.0454
-0.0455
-0.0455
0
-0.0454
-0.0455
-0.0454
-0.0455
-0.0454
-0.0455
-0.0454
-0.0455
-0.0454
-0.0455

shape_id 6
num_samples 45
0
0.0455
0.0909
0.1364
0.1818
0.2273
0.2727
0.3182
0.3636
0.4091
0.4545
0.5
0.5455
0.5909
0.6364
0.6818
0.7273
0.7727
0.8182
0.8636
0.9091
0.9545
1
0.9545
0.9091
0.8636
0.8182
0.7727
0.7273
0.6818
0.6364
0.5909
0.5455
0.5
0.4545
0.4091
0.3636
0.3182
0.2727
0.2273
0.1818
0.1364
0.0909
0.0455
0

shape_id 7
num_samples 45
0
0.0455
0.0909
0.1364
0.1818
0.2273
0.2727
0.3182
0.3636
0.4091
0.4545
0.5
0.5455
0.5909
0.6364
0.6818
0.7273
0.7727
0.8182
0.8636
0.9091
0.9545
1
0.9545
0.9091
0.8636
0.8182
0.7727
0.7273
0.6818
0.6364
0.5909
0.5455
0.5
0.4545
0.4091
0.3636
0.3182
0.2727
0.2273
0.1818
0.1364
0.0909
0.0455
0

shape_id 8
num_samples 389
0
0.3333
0.3334
0.3333
0
0
380
-0.3333
-0.3334
-0.3333

shape_id 9
num_samples 130
0
0.0455
0.0454
0.0455
0.0454
0.0455
0.0454
0.0455
0.0454
0.0455
0.0454
0.0455
0.0455
0
0.0454
0.0455
0.0454
0.0455
0.0454
0.0455
0.0454
0.0455
0.0454
0.0455
0
0
83
-0.0455
-0.0454
-0.0455
-0.0454
-0.0455
-0.0454
-0.0455
-0.0454
-0.0455
-0.0454
-0.0455
-0.0455
0
-0.0454
-0.0455
-0.0454
-0.0455
-0.0454
-0.0455
-0.0454
-0.0455
-0.0454
-0.0455

shape_id 10
num_samples 45
0
0.0455
0.0909
0.1364
0.1818
0.2273
0.2727
0.3182
0.3636
0.4091
0.4545
0.5
0.5455
0.5909
0.6364
0.6818
0.7273
0.7727
0.8182
0.8636
0.9091
0.9545
1
0.9545
0.9091
0.8636
0.8182
0.7727
0.7273
0.6818
0.6364
0.5909
0.5455
0.5
0.4545
0.4091
0.3636
0.3182
0.2727
0.2273
0.1818
0.1364
0.0909
0.0455
0

shape_id 11
num_samples 45
0
0.0455
0.0909
0.1364
0.1818
0.2273
0.2727
0.3182
0.3636
0.4091
0.4545
0.5
0.5455
0.5909
0.6364
0.6818
0.7273
0.7727
0.8182
0.8636
0.9091
0.9545
1
0.9545
0.9091
0.8636
0.8182
0.7727
0.7273
0.6818
0.6364
0.5909
0.5455
0.5
0.4545
0.4091
0.3636
0.3182
0.2727
0.2273
0.1818
0.1364
0.0909
0.0455
0

shape_id 12
num_samples 45
0
0.0455
0.0909
0.1364
0.1818
0.2273
0.2727
0.3182
0.3636
0.4091
0.4545
0.5
0.5455
0.5909
0.6364
0.6818
0.7273
0.7727
0.8182
0.8636
0.9091
0.9545
1
0.9545
0.9091
0.8636
0.8182
0.7727
0.7273
0.6818
0.6364
0.5909
0.5455
0.5
0.4545
0.4091
0.3636
0.3182
0.2727
0.2273
0.1818
0.1364
0.0909
0.0455
0

shape_id 13
num_samples 45
0
0.0455
0.0909
0.1364
0.1818
0.2273
0.2727
0.3182
0.3636
0.4091
0.4545
0.5
0.5455
0.5909
0.6364
0.6818
0.7273
0.7727
0.8182
0.8636
0.9091
0.9545
1
0.9545
0.9091
0.8636
0.8182
0.7727
0.7273
0.6818
0.6364
0.5909
0.5455
0.5
0.4545
0.4091
0.3636
0.3182
0.2727
0.2273
0.1818
0.1364
0.0909
0.0455
0

shape_id 14
num_samples 45
0
0.0455
0.0909
0.1364
0.1818
0.2273
0.2727
0.3182
0.3636
0.4091
0.4545
0.5
0.5455
0.5909
0.6364
0.6818
0.7273
0.7727
0.8182
0.8636
0.9091
0.9545
1
0.9545
0.9091
0.8636
0.8182
0.7727
0.7273
0.6818
0.6364
0.5909
0.5455
0.5
0.4545
0.4091
0.3636
0.3182
0.2727
0.2273
0.1818
0.1364
0.0909
0.0455
0

shape_id 15
num_samples 45
0
0.0455
0.0909
0.1364
0.1818
0.2273
0.2727
0.3182
0.3636
0.4091
0.4545
0.5
0.5455
0.5909
0.6364
0.6818
0.7273
0.7727
0.8182
0.8636
0.9091
0.9545
1
0.9545
0.9091
0.8636
0.8182
0.7727
0.7273
0.6818
0.6364
0.5909
0.5455
0.5
0.4545
0.4091
0.3636
0.3182
0.2727
0.2273
0.1818
0.1364
0.0909
0.0455
0

shape_id 16
num_samples 45
0
0.0455
0.0909
0.1364
0.1818
0.2273
0.2727
0.3182
0.3636
0.4091
0.4545
0.5
0.5455
0.5909
0.6364
0.6818
0.7273
0.7727
0.8182
0.8636
0.9091
0.9545
1
0.9545
0.9091
0.8636
0.8182
0.7727
0.7273
0.6818
0.6364
0.5909
0.5455
0.5
0.4545
0.4091
0.3636
0.3182
0.2727
0.2273
0.1818
0.1364
0.0909
0.0455
0

shape_id 17
num_samples 45
0
0.0455
0.0909
0.1364
0.1818
0.2273
0.2727
0.3182
0.3636
0.4091
0.4545
0.5
0.5455
0.5909
0.6364
0.6818
0.7273
0.7727
0.8182
0.8636
0.9091
0.9545
1
0.9545
0.9091
0.8636
0.8182
0.7727
0.7273
0.6818
0.6364
0.5909
0.5455
0.5
0.4545
0.4091
0.3636
0.3182
0.2727
0.2273
0.1818
0.1364
0.0909
0.0455
0

shape_id 18
num_samples 45
0
0.0455
0.0909
0.1364
0.1818
0.2273
0.2727
0.3182
0.3636
0.4091
0.4545
0.5
0.5455
0.5909
0.6364
0.6818
0.7273
0.7727
0.8182
0.8636
0.9091
0.9545
1
0.9545
0.9091
0.8636
0.8182
0.7727
0.7273
0.6818
0.6364
0.5909
0.5455
0.5
0.4545
0.4091
0.3636
0.3182
0.2727
0.2273
0.1818
0.1364
0.0909
0.0455
0

shape_id 19
num_samples 45
0
0.0455
0.0909
0.1364
0.1818
0.2273
0.2727
0.3182
0.3636
0.4091
0.4545
0.5
0.5455
0.5909
0.6364
0.6818
0.7273
0.7727
0.8182
0.8636
0.9091
0.9545
1
0.9545
0.9091
0.8636
0.8182
0.7727
0.7273
0.6818
0.6364
0.5909
0.5455
0.5
0.4545
0.4091
0.3636
0.3182
0.2727
0.2273
0.1818
0.1364
0.0909
0.0455
0

shape_id 20
num_samples 45
0
0.0455
0.0909
0.1364
0.1818
0.2273
0.2727
0.3182
0.3636
0.4091
0.4545
0.5
0.5455
0.5909
0.6364
0.6818
0.7273
0.7727
0.8182
0.8636
0.9091
0.9545
1
0.9545
0.9091
0.8636
0.8182
0.7727
0.7273
0.6818
0.6364
0.5909
0.5455
0.5
0.4545
0.4091
0.3636
0.3182
0.2727
0.2273
0.1818
0.1364
0.0909
0.0455
0

shape_id 21
num_samples 45
0
0.0455
0.0909
0.1364
0.1818
0.2273
0.2727
0.3182
0.3636
0.4091
0.4545
0.5
0.5455
0.5909
0.6364
0.6818
0.7273
0.7727
0.8182
0.8636
0.9091
0.9545
1
0.9545
0.9091
0.8636
0.8182
0.7727
0.7273
0.6818
0.6364
0.5909
0.5455
0.5
0.4545
0.4091
0.3636
0.3182
0.2727
0.2273
0.1818
0.1364
0.0909
0.0455
0

shape_id 22
num_samples 45
0
0.0455
0.0909
0.1364
0.1818
0.2273
0.2727
0.3182
0.3636
0.4091
0.4545
0.5
0.5455
0.5909
0.6364
0.6818
0.7273
0.7727
0.8182
0.8636
0.9091
0.9545
1
0.9545
0.9091
0.8636
0.8182
0.7727
0.7273
0.6818
0.6364
0.5909
0.5455
0.5
0.4545
0.4091
0.3636
0.3182
0.2727
0.2273
0.1818
0.1364
0.0909
0.0455
0

shape_id 23
num_samples 45
0
0.0455
0.0909
0.1364
0.1818
0.2273
0.2727
0.3182
0.3636
0.4091
0.4545
0.5
0.5455
0.5909
0.6364
0.6818
0.7273
0.7727
0.8182
0.8636
0.9091
0.9545
1
0.9545
0.9091
0.8636
0.8182
0.7727
0.7273
0.6818
0.6364
0.5909
0.5455
0.5
0.4545
0.4091
0.3636
0.3182
0.2727
0.2273
0.1818
0.1364
0.0909
0.0455
0

shape_id 24
num_samples 45
0
0.0455
0.0909
0.1364
0.1818
0.2273
0.2727
0.3182
0.3636
0.4091
0.4545
0.5
0.5455
0.5909
0.6364
0.6818
0.7273
0.7727
0.8182
0.8636
0.9091
0.9545
1
0.9545
0.9091
0.8636
0.8182
0.7727
0.7273
0.6818
0.6364
0.5909
0.5455
0.5
0.4545
0.4091
0.3636
0.3182
0.2727
0.2273
0.1818
0.1364
0.0909
0.0455
0

shape_id 25
num_samples 45
0
0.0455
0.0909
0.1364
0.1818
0.2273
0.2727
0.3182
0.3636
0.4091
0.4545
0.5
0.5455
0.5909
0.6364
0.6818
0.7273
0.7727
0.8182
0.8636
0.9091
0.9545
1
0.9545
0.9091
0.8636
0.8182
0.7727
0.7273
0.6818
0.6364
0.5909
0.5455
0.5
0.4545
0.4091
0.3636
0.3182
0.2727
0.2273
0.1818
0.1364
0.0909
0.0455
0

shape_id 26
num_samples 45
0
0.0455
0.0909
0.1364
0.1818
0.2273
0.2727
0.3182
0.3636
0.4091
0.4545
0.5
0.5455
0.5909
0.6364
0.6818
0.7273
0.7727
0.8182
0.8636
0.9091
0.9545
1
0.9545
0.9091
0.8636
0.8182
0.7727
0.7273
0.6818
0.6364
0.5909
0.5455
0.5
0.4545
0.4091
0.3636
0.3182
0.2727
0.2273
0.1818
0.1364
0.0909
0.0455
0

shape_id 27
num_samples 45
0
0.0455
0.0909
0.1364
0.1818
0.2273
0.2727
0.3182
0.3636
0.4091
0.4545
0.5
0.5455
0.5909
0.6364
0.6818
0.7273
0.7727
0.8182
0.8636
0.9091
0.9545
1
0.9545
0.9091
0.8636
0.8182
0.7727
0.7273
0.6818
0.6364
0.5909
0.5455
0.5
0.4545
0.4091
0.3636
0.3182
0.2727
0.2273
0.1818
0.1364
0.0909
0.0455
0

shape_id 28
num_samples 45
0
0.0455
0.0909
0.1364
0.1818
0.2273
0.2727
0.3182
0.3636
0.4091
0.4545
0.5
0.5455
0.5909
0.6364
0.6818
0.7273
0.7727
0.8182
0.8636
0.9091
0.9545
1
0.9545
0.9091
0.8636
0.8182
0.7727
0.7273
0.6818
0.6364
0.5909
0.5455
0.5
0.4545
0.4091
0.3636
0.3182
0.2727
0.2273
0.1818
0.1364
0.0909
0.0455
0

shape_id 29
num_samples 45
0
0.0455
0.0909
0.1364
0.1818
0.2273
0.2727
0.3182
0.3636
0.4091
0.4545
0.5
0.5455
0.5909
0.6364
0.6818
0.7273
0.7727
0.8182
0.8636
0.9091
0.9545
1
0.9545
0.9091
0.8636
0.8182
0.7727
0.7273
0.6818
0.6364
0.5909
0.5455
0.5
0.4545
0.4091
0.3636
0.3182
0.2727
0.2273
0.1818
0.1364
0.0909
0.0455
0

shape_id 30
num_samples 45
0
0.0455
0.0909
0.1364
0.1818
0.2273
0.2727
0.3182
0.3636
0.4091
0.4545
0.5
0.5455
0.5909
0.6364
0.6818
0.7273
0.7727
0.8182
0.8636
0.9091
0.9545
1
0.9545
0.9091
0.8636
0.8182
0.7727
0.7273
0.6818
0.6364
0.5909
0.5455
0.5
0.4545
0.4091
0.3636
0.3182
0.2727
0.2273
0.1818
0.1364
0.0909
0.0455
0

shape_id 31
num_samples 45
0
0.0455
0.0909
0.1364
0.1818
0.2273
0.2727
0.3182
0.3636
0.4091
0.4545
0.5
0.5455
0.5909
0.6364
0.6818
0.7273
0.7727
0.8182
0.8636
0.9091
0.9545
1
0.9545
0.9091
0.8636
0.8182
0.7727
0.7273
0.6818
0.6364
0.5909
0.5455
0.5
0.4545
0.4091
0.3636
0.3182
0.2727
0.2273
0.1818
0.1364
0.0909
0.0455
0

shape_id 32
num_samples 45
0
0.0455
0.0909
0.1364
0.1818
0.2273
0.2727
0.3182
0.3636
0.4091
0.4545
0.5
0.5455
0.5909
0.6364
0.6818
0.7273
0.7727
0.8182
0.8636
0.9091
0.9545
1
0.9545
0.9091
0.8636
0.8182
0.7727
0.7273
0.6818
0.6364
0.5909
0.5455
0.5
0.4545
0.4091
0.3636
0.3182
0.2727
0.2273
0.1818
0.1364
0.0909
0.0455
0

shape_id 33
num_samples 45
0
0.0455
0.0909
0.1364
0.1818
0.2273
0.2727
0.3182
0.3636
0.4091
0.4545
0.5
0.5455
0.5909
0.6364
0.6818
0.7273
0.7727
0.8182
0.8636
0.9091
0.9545
1
0.9545
0.9091
0.8636
0.8182
0.7727
0.7273
0.6818
0.6364
0.5909
0.5455
0.5
0.4545
0.4091
0.3636
0.3182
0.2727
0.2273
0.1818
0.1364
0.0909
0.0455
0

shape_id 34
num_samples 45
0
0.0455
0.0909
0.1364
0.1818
0.2273
0.2727
0.3182
0.3636
0.4091
0.4545
0.5
0.5455
0.5909
0.6364
0.6818
0.7273
0.7727
0.8182
0.8636
0.9091
0.9545
1
0.9545
0.9091
0.8636
0.8182
0.7727
0.7273
0.6818
0.6364
0.5909
0.5455
0.5
0.4545
0.4091
0.3636
0.3182
0.2727
0.2273
0.1818
0.1364
0.0909
0.0455
0

shape_id 35
num_samples 45
0
0.0455
0.0909
0.1364
0.1818
0.2273
0.2727
0.3182
0.3636
0.4091
0.4545
0.5
0.5455
0.5909
0.6364
0.6818
0.7273
0.7727
0.8182
0.8636
0.9091
0.9545
1
0.9545
0.9091
0.8636
0.8182
0.7727
0.7273
0.6818
0.6364
0.5909
0.5455
0.5
0.4545
0.4091
0.3636
0.3182
0.2727
0.2273
0.1818
0.1364
0.0909
0.0455
0

shape_id 36
num_samples 45
0
0.0455
0.0909
0.1364
0.1818
0.2273
0.2727
0.3182
0.3636
0.4091
0.4545
0.5
0.5455
0.5909
0.6364
0.6818
0.7273
0.7727
0.8182
0.8636
0.9091
0.9545
1
0.9545
0.9091
0.8636
0.8182
0.7727
0.7273
0.6818
0.6364
0.5909
0.5455
0.5
0.4545
0.4091
0.3636
0.3182
0.2727
0.2273
0.1818
0.1364
0.0909
0.0455
0

shape_id 37
num_samples 45
0
0.0455
0.0909
0.1364
0.1818
0.2273
0.2727
0.3182
0.3636
0.4091
0.4545
0.5
0.5455
0.5909
0.6364
0.6818
0.7273
0.7727
0.8182
0.8636
0.9091
0.9545
1
0.9545
0.9091
0.8636
0.8182
0.7727
0.7273
0.6818
0.6364
0.5909
0.5455
0.5
0.4545
0.4091
0.3636
0.3182
0.2727
0.2273
0.1818
0.1364
0.0909
0.0455
0

shape_id 38
num_samples 45
0
0.0455
0.0909
0.1364
0.1818
0.2273
0.2727
0.3182
0.3636
0.4091
0.4545
0.5
0.5455
0.5909
0.6364
0.6818
0.7273
0.7727
0.8182
0.8636
0.9091
0.9545
1
0.9545
0.9091
0.8636
0.8182
0.7727
0.7273
0.6818
0.6364
0.5909
0.5455
0.5
0.4545
0.4091
0.3636
0.3182
0.2727
0.2273
0.1818
0.1364
0.0909
0.0455
0

shape_id 39
num_samples 45
0
0.0455
0.0909
0.1364
0.1818
0.2273
0.2727
0.3182
0.3636
0.4091
0.4545
0.5
0.5455
0.5909
0.6364
0.6818
0.7273
0.7727
0.8182
0.8636
0.9091
0.9545
1
0.9545
0.9091
0.8636
0.8182
0.7727
0.7273
0.6818
0.6364
0.5909
0.5455
0.5
0.4545
0.4091
0.3636
0.3182
0.2727
0.2273
0.1818
0.1364
0.0909
0.0455
0

shape_id 40
num_samples 45
0
0.0455
0.0909
0.1364
0.1818
0.2273
0.2727
0.3182
0.3636
0.4091
0.4545
0.5
0.5455
0.5909
0.6364
0.6818
0.7273
0.7727
0.8182
0.8636
0.9091
0.9545
1
0.9545
0.9091
0.8636
0.8182
0.7727
0.7273
0.6818
0.6364
0.5909
0.5455
0.5
0.4545
0.4091
0.3636
0.3182
0.2727
0.2273
0.1818
0.1364
0.0909
0.0455
0

shape_id 41
num_samples 45
0
0.0455
0.0909
0.1364
0.1818
0.2273
